theta3  E4(MeV)
180  0.2824
174.8341  0.2819
172.6919  0.2813
171.0466  0.2807
169.6581  0.2802
168.4336  0.2796
167.3256  0.279
166.3056  0.2785
165.3553  0.2779
164.4618  0.2773
163.616  0.2768
162.8106  0.2762
162.0404  0.2757
161.3009  0.2751
160.5886  0.2745
159.9007  0.274
159.2347  0.2734
158.5885  0.2728
157.9604  0.2723
157.349  0.2717
156.7528  0.2711
156.1708  0.2706
155.6019  0.27
155.0452  0.2694
154.4999  0.2689
153.9654  0.2683
153.4409  0.2677
152.9258  0.2672
152.4197  0.2666
151.9221  0.2661
151.4324  0.2655
150.9504  0.2649
150.4756  0.2644
150.0076  0.2638
149.5462  0.2632
149.0911  0.2627
148.6419  0.2621
148.1985  0.2615
147.7606  0.261
147.328  0.2604
146.9004  0.2598
146.4777  0.2593
146.0596  0.2587
145.6461  0.2581
145.2369  0.2576
144.8319  0.257
144.431  0.2565
144.034  0.2559
143.6407  0.2553
143.2511  0.2548
142.8651  0.2542
142.4825  0.2536
142.1032  0.2531
141.7271  0.2525
141.3541  0.2519
140.9842  0.2514
140.6172  0.2508
140.2531  0.2502
139.8918  0.2497
139.5332  0.2491
139.1772  0.2485
138.8238  0.248
138.4729  0.2474
138.1244  0.2469
137.7783  0.2463
137.4345  0.2457
137.0929  0.2452
136.7535  0.2446
136.4163  0.244
136.0812  0.2435
135.7481  0.2429
135.4171  0.2423
135.0879  0.2418
134.7607  0.2412
134.4353  0.2406
134.1118  0.2401
133.7901  0.2395
133.47  0.2389
133.1517  0.2384
132.8351  0.2378
132.5201  0.2373
132.2067  0.2367
131.8948  0.2361
131.5845  0.2356
131.2757  0.235
130.9684  0.2344
130.6625  0.2339
130.358  0.2333
130.055  0.2327
129.7532  0.2322
129.4528  0.2316
129.1538  0.231
128.856  0.2305
128.5594  0.2299
128.2641  0.2293
127.9701  0.2288
127.6772  0.2282
127.3854  0.2277
127.0949  0.2271
126.8054  0.2265
126.5171  0.226
126.2298  0.2254
125.9436  0.2248
125.6585  0.2243
125.3744  0.2237
125.0913  0.2231
124.8092  0.2226
124.5281  0.222
124.248  0.2214
123.9688  0.2209
123.6905  0.2203
123.4132  0.2197
123.1367  0.2192
122.8612  0.2186
122.5865  0.2181
122.3126  0.2175
122.0396  0.2169
121.7674  0.2164
121.4961  0.2158
121.2255  0.2152
120.9558  0.2147
120.6868  0.2141
120.4186  0.2135
120.1511  0.213
119.8844  0.2124
119.6184  0.2118
119.3531  0.2113
119.0885  0.2107
118.8246  0.2101
118.5614  0.2096
118.2989  0.209
118.037  0.2085
117.7758  0.2079
117.5152  0.2073
117.2553  0.2068
116.9959  0.2062
116.7372  0.2056
116.4791  0.2051
116.2216  0.2045
115.9647  0.2039
115.7083  0.2034
115.4525  0.2028
115.1973  0.2022
114.9426  0.2017
114.6885  0.2011
114.4349  0.2005
114.1818  0.2
113.9293  0.1994
113.6772  0.1989
113.4257  0.1983
113.1746  0.1977
112.924  0.1972
112.6739  0.1966
112.4243  0.196
112.1751  0.1955
111.9264  0.1949
111.6782  0.1943
111.4304  0.1938
111.183  0.1932
110.936  0.1926
110.6895  0.1921
110.4434  0.1915
110.1977  0.1909
109.9524  0.1904
109.7075  0.1898
109.4629  0.1893
109.2188  0.1887
108.9751  0.1881
108.7317  0.1876
108.4886  0.187
108.246  0.1864
108.0037  0.1859
107.7617  0.1853
107.5201  0.1847
107.2788  0.1842
107.0379  0.1836
106.7972  0.183
106.5569  0.1825
106.3169  0.1819
106.0772  0.1813
105.8379  0.1808
105.5988  0.1802
105.36  0.1797
105.1215  0.1791
104.8833  0.1785
104.6453  0.178
104.4076  0.1774
104.1702  0.1768
103.9331  0.1763
103.6962  0.1757
103.4596  0.1751
103.2232  0.1746
102.9871  0.174
102.7512  0.1734
102.5155  0.1729
102.2801  0.1723
102.0448  0.1717
101.8099  0.1712
101.5751  0.1706
101.3405  0.1701
101.1062  0.1695
100.872  0.1689
100.6381  0.1684
100.4043  0.1678
100.1707  0.1672
99.9373  0.1667
99.7041  0.1661
99.4711  0.1655
99.2382  0.165
99.0055  0.1644
98.773  0.1638
98.5406  0.1633
98.3084  0.1627
98.0764  0.1621
97.8445  0.1616
97.6127  0.161
97.3811  0.1605
97.1496  0.1599
96.9182  0.1593
96.687  0.1588
96.4559  0.1582
96.2249  0.1576
95.994  0.1571
95.7632  0.1565
95.5326  0.1559
95.302  0.1554
95.0716  0.1548
94.8412  0.1542
94.611  0.1537
94.3808  0.1531
94.1507  0.1525
93.9207  0.152
93.6908  0.1514
93.4609  0.1509
93.2311  0.1503
93.0014  0.1497
92.7717  0.1492
92.5421  0.1486
92.3126  0.148
92.0831  0.1475
91.8536  0.1469
91.6242  0.1463
91.3949  0.1458
91.1656  0.1452
90.9363  0.1446
90.707  0.1441
90.4778  0.1435
90.2485  0.1429
90.0193  0.1424
89.7902  0.1418
89.561  0.1413
89.3318  0.1407
89.1027  0.1401
88.8735  0.1396
88.6443  0.139
88.4151  0.1384
88.186  0.1379
87.9568  0.1373
87.7275  0.1367
87.4983  0.1362
87.269  0.1356
87.0397  0.135
86.8104  0.1345
86.581  0.1339
86.3516  0.1333
86.1222  0.1328
85.8927  0.1322
85.6631  0.1317
85.4335  0.1311
85.2038  0.1305
84.9741  0.13
84.7443  0.1294
84.5144  0.1288
84.2845  0.1283
84.0545  0.1277
83.8243  0.1271
83.5942  0.1266
83.3639  0.126
83.1335  0.1254
82.903  0.1249
82.6725  0.1243
82.4418  0.1237
82.211  0.1232
81.9801  0.1226
81.7491  0.1221
81.5179  0.1215
81.2867  0.1209
81.0553  0.1204
80.8237  0.1198
80.5921  0.1192
80.3603  0.1187
80.1283  0.1181
79.8962  0.1175
79.664  0.117
79.4316  0.1164
79.199  0.1158
78.9662  0.1153
78.7333  0.1147
78.5003  0.1141
78.267  0.1136
78.0335  0.113
77.7999  0.1124
77.5661  0.1119
77.3321  0.1113
77.0978  0.1108
76.8634  0.1102
76.6288  0.1096
76.3939  0.1091
76.1589  0.1085
75.9236  0.1079
75.6881  0.1074
75.4523  0.1068
75.2163  0.1062
74.9801  0.1057
74.7436  0.1051
74.5069  0.1045
74.2699  0.104
74.0326  0.1034
73.7951  0.1028
73.5573  0.1023
73.3192  0.1017
73.0809  0.1012
72.8422  0.1006
72.6033  0.1
72.3641  0.0995
72.1246  0.0989
71.8847  0.0983
71.6446  0.0978
71.4041  0.0972
71.1633  0.0966
70.9222  0.0961
70.6807  0.0955
70.4389  0.0949
70.1967  0.0944
69.9542  0.0938
69.7113  0.0932
69.4681  0.0927
69.2245  0.0921
68.9805  0.0916
68.7361  0.091
68.4913  0.0904
68.2462  0.0899
68.0006  0.0893
67.7546  0.0887
67.5082  0.0882
67.2614  0.0876
67.0141  0.087
66.7665  0.0865
66.5183  0.0859
66.2697  0.0853
66.0207  0.0848
65.7712  0.0842
65.5212  0.0836
65.2707  0.0831
65.0197  0.0825
64.7683  0.082
64.5163  0.0814
64.2638  0.0808
64.0108  0.0803
63.7573  0.0797
63.5032  0.0791
63.2486  0.0786
62.9934  0.078
62.7377  0.0774
62.4813  0.0769
62.2244  0.0763
61.9669  0.0757
61.7089  0.0752
61.4501  0.0746
61.1908  0.074
60.9309  0.0735
60.6703  0.0729
60.409  0.0724
60.1471  0.0718
59.8845  0.0712
59.6212  0.0707
59.3573  0.0701
59.0926  0.0695
58.8272  0.069
58.5611  0.0684
58.2942  0.0678
58.0266  0.0673
57.7582  0.0667
57.4891  0.0661
57.2191  0.0656
56.9484  0.065
56.6768  0.0644
56.4044  0.0639
56.1311  0.0633
55.857  0.0628
55.582  0.0622
55.3061  0.0616
55.0294  0.0611
54.7516  0.0605
54.473  0.0599
54.1934  0.0594
53.9128  0.0588
53.6313  0.0582
53.3487  0.0577
53.0651  0.0571
52.7805  0.0565
52.4948  0.056
52.208  0.0554
51.9201  0.0548
51.6312  0.0543
51.341  0.0537
51.0497  0.0532
50.7573  0.0526
50.4636  0.052
50.1687  0.0515
49.8725  0.0509
49.575  0.0503
49.2763  0.0498
48.9762  0.0492
48.6748  0.0486
48.372  0.0481
48.0677  0.0475
47.7621  0.0469
47.4549  0.0464
47.1463  0.0458
46.8361  0.0452
46.5244  0.0447
46.2111  0.0441
45.8961  0.0436
45.5795  0.043
45.2611  0.0424
44.9411  0.0419
44.6192  0.0413
44.2955  0.0407
43.97  0.0402
43.6425  0.0396
43.3131  0.039
42.9817  0.0385
42.6482  0.0379
42.3127  0.0373
41.9749  0.0368
41.635  0.0362
41.2928  0.0356
40.9483  0.0351
40.6014  0.0345
40.2521  0.034
39.9003  0.0334
39.5458  0.0328
39.1887  0.0323
38.8289  0.0317
38.4663  0.0311
38.1008  0.0306
37.7323  0.03
37.3608  0.0294
36.986  0.0289
36.6081  0.0283
36.2267  0.0277
35.8419  0.0272
35.4535  0.0266
35.0614  0.026
34.6655  0.0255
34.2656  0.0249
33.8615  0.0244
33.4532  0.0238
33.0405  0.0232
32.6232  0.0227
32.2011  0.0221
31.774  0.0215
31.3418  0.021
30.9041  0.0204
30.4608  0.0198
30.0117  0.0193
29.5564  0.0187
29.0946  0.0181
28.6261  0.0176
28.1505  0.017
27.6674  0.0164
27.1765  0.0159
26.6772  0.0153
26.1692  0.0148
25.6519  0.0142
25.1246  0.0136
24.5869  0.0131
24.0379  0.0125
23.4769  0.0119
22.9031  0.0114
22.3152  0.0108
21.7124  0.0102
21.0932  0.0097
20.4562  0.0091
19.7997  0.0085
19.1216  0.008
18.4196  0.0074
17.6908  0.0068
16.9318  0.0063
16.1382  0.0057
15.3047  0.0052
14.4244  0.0046
13.4881  0.004
12.4832  0.0035
11.3916  0.0029
10.1855  0.0023
8.8178  0.0018
7.1972  0.0012
5.0875  0.0006
0  0.0001
