theta3  E4(MeV)
180  2.0941
174.7557  2.09
172.5812  2.0858
170.9111  2.0816
169.5018  2.0774
168.2591  2.0732
167.1346  2.069
166.0996  2.0648
165.1353  2.0606
164.2288  2.0564
163.3706  2.0523
162.5536  2.0481
161.7722  2.0439
161.0221  2.0397
160.2996  2.0355
159.6019  2.0313
158.9264  2.0271
158.2711  2.0229
157.6342  2.0188
157.0142  2.0146
156.4097  2.0104
155.8197  2.0062
155.2429  2.002
154.6786  1.9978
154.1259  1.9936
153.5841  1.9894
153.0525  1.9853
152.5305  1.9811
152.0176  1.9769
151.5133  1.9727
151.0172  1.9685
150.5288  1.9643
150.0477  1.9601
149.5736  1.9559
149.1062  1.9517
148.6452  1.9476
148.1903  1.9434
147.7412  1.9392
147.2977  1.935
146.8596  1.9308
146.4266  1.9266
145.9986  1.9224
145.5753  1.9182
145.1567  1.9141
144.7424  1.9099
144.3325  1.9057
143.9266  1.9015
143.5248  1.8973
143.1268  1.8931
142.7325  1.8889
142.3418  1.8847
141.9546  1.8805
141.5708  1.8764
141.1903  1.8722
140.813  1.868
140.4388  1.8638
140.0676  1.8596
139.6993  1.8554
139.3338  1.8512
138.9711  1.847
138.6111  1.8429
138.2537  1.8387
137.8989  1.8345
137.5465  1.8303
137.1965  1.8261
136.8489  1.8219
136.5037  1.8177
136.1606  1.8135
135.8198  1.8093
135.481  1.8052
135.1444  1.801
134.8098  1.7968
134.4772  1.7926
134.1465  1.7884
133.8178  1.7842
133.4909  1.78
133.1658  1.7758
132.8425  1.7717
132.521  1.7675
132.2012  1.7633
131.883  1.7591
131.5665  1.7549
131.2515  1.7507
130.9382  1.7465
130.6263  1.7423
130.316  1.7382
130.0072  1.734
129.6998  1.7298
129.3938  1.7256
129.0892  1.7214
128.786  1.7172
128.4841  1.713
128.1836  1.7088
127.8843  1.7046
127.5863  1.7005
127.2896  1.6963
126.994  1.6921
126.6997  1.6879
126.4065  1.6837
126.1145  1.6795
125.8237  1.6753
125.5339  1.6711
125.2452  1.667
124.9577  1.6628
124.6711  1.6586
124.3857  1.6544
124.1012  1.6502
123.8178  1.646
123.5353  1.6418
123.2538  1.6376
122.9733  1.6334
122.6937  1.6293
122.415  1.6251
122.1373  1.6209
121.8604  1.6167
121.5844  1.6125
121.3093  1.6083
121.035  1.6041
120.7616  1.5999
120.489  1.5958
120.2172  1.5916
119.9462  1.5874
119.676  1.5832
119.4066  1.579
119.1379  1.5748
118.87  1.5706
118.6028  1.5664
118.3363  1.5623
118.0706  1.5581
117.8056  1.5539
117.5412  1.5497
117.2776  1.5455
117.0146  1.5413
116.7523  1.5371
116.4906  1.5329
116.2296  1.5287
115.9692  1.5246
115.7094  1.5204
115.4503  1.5162
115.1917  1.512
114.9337  1.5078
114.6764  1.5036
114.4196  1.4994
114.1634  1.4952
113.9077  1.4911
113.6526  1.4869
113.398  1.4827
113.144  1.4785
112.8905  1.4743
112.6375  1.4701
112.385  1.4659
112.133  1.4617
111.8815  1.4575
111.6306  1.4534
111.38  1.4492
111.13  1.445
110.8804  1.4408
110.6313  1.4366
110.3827  1.4324
110.1345  1.4282
109.8867  1.424
109.6394  1.4199
109.3925  1.4157
109.146  1.4115
108.8999  1.4073
108.6542  1.4031
108.409  1.3989
108.1641  1.3947
107.9196  1.3905
107.6755  1.3863
107.4317  1.3822
107.1884  1.378
106.9454  1.3738
106.7027  1.3696
106.4604  1.3654
106.2185  1.3612
105.9769  1.357
105.7356  1.3528
105.4947  1.3487
105.2541  1.3445
105.0138  1.3403
104.7738  1.3361
104.5341  1.3319
104.2948  1.3277
104.0557  1.3235
103.8169  1.3193
103.5784  1.3152
103.3402  1.311
103.1023  1.3068
102.8647  1.3026
102.6273  1.2984
102.3902  1.2942
102.1533  1.29
101.9167  1.2858
101.6803  1.2816
101.4442  1.2775
101.2083  1.2733
100.9727  1.2691
100.7373  1.2649
100.5021  1.2607
100.2671  1.2565
100.0324  1.2523
99.7979  1.2481
99.5635  1.244
99.3294  1.2398
99.0955  1.2356
98.8618  1.2314
98.6282  1.2272
98.3949  1.223
98.1617  1.2188
97.9287  1.2146
97.6959  1.2104
97.4633  1.2063
97.2308  1.2021
96.9985  1.1979
96.7663  1.1937
96.5343  1.1895
96.3025  1.1853
96.0708  1.1811
95.8392  1.1769
95.6078  1.1728
95.3765  1.1686
95.1453  1.1644
94.9143  1.1602
94.6834  1.156
94.4526  1.1518
94.2219  1.1476
93.9913  1.1434
93.7608  1.1393
93.5305  1.1351
93.3002  1.1309
93.07  1.1267
92.8399  1.1225
92.6099  1.1183
92.38  1.1141
92.1502  1.1099
91.9204  1.1057
91.6908  1.1016
91.4612  1.0974
91.2316  1.0932
91.0021  1.089
90.7727  1.0848
90.5433  1.0806
90.314  1.0764
90.0847  1.0722
89.8555  1.0681
89.6263  1.0639
89.3971  1.0597
89.168  1.0555
88.9389  1.0513
88.7098  1.0471
88.4807  1.0429
88.2517  1.0387
88.0227  1.0345
87.7936  1.0304
87.5646  1.0262
87.3356  1.022
87.1066  1.0178
86.8776  1.0136
86.6486  1.0094
86.4195  1.0052
86.1905  1.001
85.9614  0.9969
85.7323  0.9927
85.5032  0.9885
85.274  0.9843
85.0448  0.9801
84.8156  0.9759
84.5863  0.9717
84.357  0.9675
84.1277  0.9633
83.8982  0.9592
83.6688  0.955
83.4392  0.9508
83.2096  0.9466
82.9799  0.9424
82.7502  0.9382
82.5204  0.934
82.2905  0.9298
82.0605  0.9257
81.8304  0.9215
81.6003  0.9173
81.37  0.9131
81.1397  0.9089
80.9092  0.9047
80.6786  0.9005
80.448  0.8963
80.2172  0.8922
79.9862  0.888
79.7552  0.8838
79.524  0.8796
79.2928  0.8754
79.0613  0.8712
78.8298  0.867
78.598  0.8628
78.3662  0.8586
78.1342  0.8545
77.902  0.8503
77.6697  0.8461
77.4372  0.8419
77.2045  0.8377
76.9717  0.8335
76.7387  0.8293
76.5055  0.8251
76.2721  0.821
76.0385  0.8168
75.8047  0.8126
75.5708  0.8084
75.3366  0.8042
75.1022  0.8
74.8676  0.7958
74.6328  0.7916
74.3978  0.7874
74.1625  0.7833
73.927  0.7791
73.6913  0.7749
73.4553  0.7707
73.2191  0.7665
72.9826  0.7623
72.7459  0.7581
72.5089  0.7539
72.2716  0.7498
72.0341  0.7456
71.7963  0.7414
71.5582  0.7372
71.3198  0.733
71.0811  0.7288
70.8421  0.7246
70.6029  0.7204
70.3633  0.7163
70.1234  0.7121
69.8831  0.7079
69.6426  0.7037
69.4017  0.6995
69.1605  0.6953
68.9189  0.6911
68.677  0.6869
68.4347  0.6827
68.1921  0.6786
67.9491  0.6744
67.7057  0.6702
67.4619  0.666
67.2178  0.6618
66.9732  0.6576
66.7283  0.6534
66.4829  0.6492
66.2371  0.6451
65.9909  0.6409
65.7443  0.6367
65.4973  0.6325
65.2498  0.6283
65.0018  0.6241
64.7534  0.6199
64.5045  0.6157
64.2552  0.6115
64.0054  0.6074
63.755  0.6032
63.5042  0.599
63.2529  0.5948
63.0011  0.5906
62.7488  0.5864
62.4959  0.5822
62.2425  0.578
61.9885  0.5739
61.734  0.5697
61.4789  0.5655
61.2232  0.5613
60.967  0.5571
60.7102  0.5529
60.4527  0.5487
60.1947  0.5445
59.936  0.5403
59.6767  0.5362
59.4168  0.532
59.1562  0.5278
58.8949  0.5236
58.633  0.5194
58.3704  0.5152
58.1071  0.511
57.843  0.5068
57.5783  0.5027
57.3128  0.4985
57.0466  0.4943
56.7796  0.4901
56.5119  0.4859
56.2433  0.4817
55.974  0.4775
55.7039  0.4733
55.4329  0.4692
55.1611  0.465
54.8884  0.4608
54.6149  0.4566
54.3405  0.4524
54.0652  0.4482
53.789  0.444
53.5118  0.4398
53.2337  0.4356
52.9547  0.4315
52.6746  0.4273
52.3936  0.4231
52.1115  0.4189
51.8284  0.4147
51.5443  0.4105
51.2591  0.4063
50.9728  0.4021
50.6853  0.398
50.3968  0.3938
50.107  0.3896
49.8161  0.3854
49.524  0.3812
49.2307  0.377
48.9361  0.3728
48.6403  0.3686
48.3431  0.3644
48.0447  0.3603
47.7448  0.3561
47.4436  0.3519
47.141  0.3477
46.837  0.3435
46.5315  0.3393
46.2244  0.3351
45.9159  0.3309
45.6058  0.3268
45.2941  0.3226
44.9807  0.3184
44.6657  0.3142
44.349  0.31
44.0305  0.3058
43.7103  0.3016
43.3882  0.2974
43.0642  0.2932
42.7384  0.2891
42.4105  0.2849
42.0807  0.2807
41.7488  0.2765
41.4148  0.2723
41.0786  0.2681
40.7403  0.2639
40.3996  0.2597
40.0566  0.2556
39.7112  0.2514
39.3633  0.2472
39.0129  0.243
38.6599  0.2388
38.3042  0.2346
37.9458  0.2304
37.5845  0.2262
37.2203  0.2221
36.8531  0.2179
36.4828  0.2137
36.1093  0.2095
35.7325  0.2053
35.3522  0.2011
34.9685  0.1969
34.5811  0.1927
34.1899  0.1885
33.7949  0.1844
33.3958  0.1802
32.9925  0.176
32.5848  0.1718
32.1726  0.1676
31.7558  0.1634
31.334  0.1592
30.9072  0.155
30.475  0.1509
30.0374  0.1467
29.5939  0.1425
29.1444  0.1383
28.6885  0.1341
28.226  0.1299
27.7566  0.1257
27.2797  0.1215
26.7952  0.1173
26.3024  0.1132
25.8011  0.109
25.2906  0.1048
24.7703  0.1006
24.2397  0.0964
23.698  0.0922
23.1446  0.088
22.5784  0.0838
21.9985  0.0797
21.4038  0.0755
20.7931  0.0713
20.1648  0.0671
19.5172  0.0629
18.8485  0.0587
18.1562  0.0545
17.4375  0.0503
16.689  0.0462
15.9065  0.042
15.0847  0.0378
14.2168  0.0336
13.2937  0.0294
12.3031  0.0252
11.2271  0.021
10.0381  0.0168
8.6901  0.0126
7.0929  0.0085
5.0136  0.0043
0  0.0001
